Voltage(mV),Current(nA)
25,0.886
50,1.753
75,2.65
100,3.53
125,4.47
150,5.41
175,6.55
200,7.53
225,8.5
250,9.67
275,10.44
300,11.84
325,13.2
350,13.36
375,15.39
400,16.87
425,18.7
450,20.39
475,22.36
500,25.3
525,28.8
550,31.2
575,33.1
600,36.4
625,41.7
